Time (s),q1_values_deg,q2_values_deg,q3_values_mm
0.0,-2.609852095490508,4.766324910649623,-2.4760765145275464e-05
0.01,-3.805509962084879,7.152593640834057,-2.5009274991098988e-05
0.02,-4.725550721708434,8.988096100318264,-2.5230556448255018e-05
0.03,-5.515311743029177,10.563500719681688,-2.5425015910604256e-05
0.04,-6.226125374187106,11.9814659895564,-2.5593059772007412e-05
0.05,-6.883064275421881,13.292131121887572,-2.5735094426325195e-05
0.06,-7.500514415189403,14.524262038256447,-2.585152626741831e-05
0.07,-8.087588103025052,15.69607743177722,-2.594276168914747e-05
0.08,-8.650460423846582,16.819921631949665,-2.6009207085373383e-05
0.09,-9.193527229231336,17.90458058353295,-2.605126884995676e-05
0.1,-9.72003765483447,18.95654687777026,-2.6069353376758316e-05
0.11,-10.232465605184494,19.980762718433034,-2.6063867059638742e-05
0.12,-10.732740587505392,20.981081585979933,-2.603521629245876e-05
0.13,-11.222397777510498,21.960568365717336,-2.5983807469079073e-05
0.14,-11.702679261475286,22.921701828572367,-2.5910046983360403e-05
0.15,-12.17460448832551,23.866515531948078,-2.5814341229163436e-05
0.16,-12.639020601707601,24.796698480591413,-2.56970966003489e-05
0.17,-13.096639219987223,25.71366868336277,-2.5558719490777505e-05
0.18,-13.548063846314887,26.61862797018181,-2.539961629430995e-05
0.19,-13.993810650934494,27.512603553498572,-2.5220193404806946e-05
0.2,-14.434324470418293,28.39648002365386,-2.5020857216129196e-05
0.21,-14.86999129314244,29.271024316754495,-2.4802014122137427e-05
0.22,-15.301148122140692,30.136905437336047,-2.4564070516692336e-05
0.23,-15.728090852330494,30.994710209798576,-2.4307432793654626e-05
0.24,-16.151080624873043,31.844955984136284,-2.4032507346885e-05
0.25,-16.57034899982327,32.68810097827034,-2.373970057024419e-05
0.26,-16.986102201949592,33.524552766741884,-2.3429418857592906e-05
0.27,-17.39852463248181,34.3546753012801,-2.3102068602791847e-05
0.28,-17.80778179420191,35.1787947580719,-2.2758056199701713e-05
0.29,-18.21402274378344,35.99720443954256,-2.2397788042183228e-05
0.3,-18.617382160230424,36.81016890834697,-2.2021670524097083e-05
0.31,-19.017982099338084,37.61792749341368,-2.1630110039303995e-05
0.32,-19.41593348965332,38.42069727899542,-2.122351298166469e-05
0.33,-19.81133741428745,39.218675665429025,-2.0802285745039848e-05
0.34,-20.204286214294374,40.012042573028864,-2.036683472329019e-05
0.35000000000000003,-20.594864442562876,40.80096234700916,-1.9917566310276433e-05
0.36,-20.98314969183415,41.58558541065511,-1.945488689985929e-05
0.37,-21.369213316216904,42.366049705485814,-1.8979202885899462e-05
0.38,-21.75312106218317,43.14248195037272,-1.8490920662257637e-05
0.39,-22.134933622299044,43.91499874612049,-1.7990446622794567e-05
0.4,-22.514707122737285,44.68370754760178,-1.7478187161370926e-05
0.41000000000000003,-22.892493553821737,45.448707521944236,-1.6954548671847435e-05
0.42,-23.268341151382725,46.21009030832563,-1.6419937548084794e-05
0.43,-23.64229473549423,46.96794069251715,-1.5874760183943718e-05
0.44,-24.014396012163644,47.72233720731439,-1.531942297328493e-05
0.45,-24.38468384271689,48.47335266833949,-1.4754332309969121e-05
0.46,-24.753194484929914,49.22105465331498,-1.4179894587857013e-05
0.47000000000000003,-25.119961809379294,49.96550593175242,-1.35965162008093e-05
0.48,-25.4850174939992,50.706764851028694,-1.3004603542686687e-05
0.49,-25.848391199421318,51.44488568400133,-1.2404563007349927e-05
0.5,-26.210110727328512,52.17991894262231,-1.1796800988659663e-05
0.51,-26.570202163757,52.91191166141819,-1.1181723880476672e-05
0.52,-26.928690009032834,53.640907654206366,-1.0559738076661622e-05
0.53,-27.285597295811538,54.36694774698299,-9.931249971075188e-06
0.54,-27.64094569650806,55.090069989555325,-9.296665957578166e-06
0.55,-27.994755621244792,55.81030984817207,-8.656392430031193e-06
0.56,-28.347046307308915,56.527700381132306,-8.010835782295022e-06
0.5700000000000001,-28.697835900993827,57.242272399120736,-7.3604024082303245e-06
0.58,-29.047141532595738,57.954054611809724,-6.705498701697821e-06
0.59,-29.39497938524855,58.66307376209214,-6.046531056558255e-06
0.6,-29.741364758202614,59.36935474915489,-5.383905866672309e-06
0.61,-30.08631212508599,60.07292074146805,-4.7180295259006635e-06
0.62,-30.42983518762652,60.77379328064492,-4.049308428104062e-06
0.63,-30.77194692526283,61.47199237702684,-3.378148967143248e-06
0.64,-31.112659641025903,62.16753659775472,-2.7049575368788344e-06
0.65,-31.451985004032615,62.86044314800814,-2.0301405311716123e-06
0.66,-31.78993408889835,63.55072794602424,-1.3541043438822632e-06
0.67,-32.126517412343674,64.23840569244489,-6.772553688714827e-07
0.68,-32.46174496724237,64.92348993448473,0.0
0.6900000000000001,-32.79562625433448,65.60599312536577,6.772553688714809e-07
0.7000000000000001,-33.128170311805235,66.28592667941835,1.3541043438822529e-06
0.71,-33.459385742911635,66.96330102321058,2.030140531171607e-06
0.72,-33.78928074182177,67.63812564303427,2.704957536878834e-06
0.73,-34.11786311781544,68.31040912904317,3.378148967143226e-06
0.74,-34.445140317981725,68.98015921631288,4.049308428104072e-06
0.75,-34.77111944853623,69.64738282306631,4.718029525900665e-06
0.76,-35.095807294870085,70.31208608628705,5.383905866672295e-06
0.77,-35.41921034043231,70.97427439492265,6.046531056558253e-06
0.78,-35.74133478453852,71.63395242086166,6.705498701697831e-06
0.79,-36.06218655919081,72.29112414785277,7.360402408230319e-06
0.8,-36.38177134498617,72.94579289851949,8.010835782295009e-06
0.81,-36.70009458618469,73.59796135961095,8.65639243003119e-06
0.8200000000000001,-37.01716150500191,74.24763160561642,9.296665957578156e-06
0.8300000000000001,-37.332977115185585,74.89480512086251,9.931249971075198e-06
0.84,-37.647546234930864,75.53948282019991,1.0559738076661588e-05
0.85,-37.9608734991845,76.1816650683794,1.1181723880476652e-05
0.86,-38.27296337138413,76.82135169820816,1.1796800988659662e-05
0.87,-38.583820154674896,77.45854202756982,1.240456300734991e-05
0.88,-38.89344800264299,78.09323487538596,1.300460354268669e-05
0.89,-39.20185092960155,78.72542857658965,1.3596516200809287e-05
0.9,-39.50903282046259,79.3551209961767,1.4179894587857e-05
0.91,-39.81499744022556,79.98230954239536,1.4754332309969113e-05
0.92,-40.11974844311062,80.60699117913028,1.531942297328492e-05
0.93,-40.42328938136287,81.22916243753195,1.5874760183943714e-05
0.9400000000000001,-40.7256237137519,81.8488194269404,1.6419937548084784e-05
0.9500000000000001,-41.02675481378859,82.46595784514626,1.695454867184742e-05
0.96,-41.32668597768009,83.08057298803142,1.7478187161370912e-05
0.97,-41.62542043204185,83.69265975862616,1.7990446622794556e-05
0.98,-41.92296134138432,84.30221267561905,1.849092066225764e-05
0.99,-42.21931181539063,84.90922588135152,1.8979202885899455e-05
1.0,-42.514474916000275,85.51369314932839,1.9454886899859293e-05
1.01,-42.80845366431242,86.11560789127202,1.9917566310276447e-05
1.02,-43.1012510473218,86.7149631637465,2.0366834723290198e-05
1.03,-43.39287002449887,87.31175167437678,2.0802285745039848e-05
1.04,-43.683313534224816,87.90596578768523,2.1223512981664684e-05
1.05,-43.97258450009143,88.49759753056682,2.1630110039303998e-05
1.06,-44.26068583707474,89.08663859742293,2.2021670524097083e-05
1.07,-44.54762045759069,89.67308035497236,2.239778804218322e-05
1.08,-44.833391277440086,90.25691384675649,2.2758056199701713e-05
1.09,-45.11800122164964,90.83812979735487,2.3102068602791843e-05
1.1,-45.40145323021511,91.41671861632625,2.3429418857592906e-05
1.11,-45.68375026375158,91.99267040188924,2.37397005702442e-05
1.12,-45.96489530905579,92.56597494435532,2.4032507346885006e-05
1.1300000000000001,-46.24489138458448,93.1366217293269,2.4307432793654616e-05
1.1400000000000001,-46.523741545851934,93.70459994067173,2.4564070516692323e-05
1.1500000000000001,-46.801448890749754,94.26989846328425,2.4802014122137417e-05
1.16,-47.078016564790985,94.83250588564421,2.5020857216129193e-05
1.17,-47.35344776628019,95.39241050218163,2.522019340480694e-05
1.18,-47.62774575141066,95.94960031545719,2.5399616294309943e-05
1.19,-47.90091383928906,96.50406303816605,2.5558719490777505e-05
1.2,-48.172955416887724,97.05578609497292,2.5697096600348903e-05
1.21,-48.443873943923585,97.60475662418519,2.581434122916344e-05
1.22,-48.71367295766325,98.15096147927208,2.59100469833604e-05
1.23,-48.982356077651595,98.69438723023418,2.5983807469079076e-05
1.24,-49.249927010362384,99.23502016483107,2.6035216292458753e-05
1.25,-49.51638955376763,99.77284628967159,2.606386705963874e-05
1.26,-49.7817476018223,100.30785133117223,2.6069353376758306e-05
1.27,-50.046005148860694,100.84002073638837,2.605126884995676e-05
1.28,-50.309166293899146,101.36933967372292,2.6009207085373383e-05
1.29,-50.57123524484092,101.89579303351677,2.5942761689147468e-05
1.3,-50.83221632257649,102.4193654285247,2.5851526267418306e-05
1.31,-51.092113964973386,102.9400411942807,2.573509442632519e-05
1.32,-51.350932730748376,103.45780438935596,2.559305977200741e-05
1.33,-51.60867730321418,103.97263879551303,2.5425015910604253e-05
1.34,-51.86535249389253,104.48452791775881,2.5230556448255018e-05
1.35,-52.120963245984456,104.99345498429953,2.500927499109899e-05
1.36,-52.375514637687935,105.49940294640002,2.476076514527546e-05
1.37,-52.62901188535282,106.00235447815021,2.4484620516923724e-05
1.3800000000000001,-52.8814603464614,106.50229197614038,2.418043471218307e-05
1.3900000000000001,-53.13286552242322,106.9991975590483,2.3847801337192783e-05
1.4000000000000001,-53.38323306117103,107.4930530671393,2.3486313998092167e-05
1.41,-53.63256875954485,107.98384006168186,2.3095566301020507e-05
1.42,-53.88087856544961,108.47153982428009,2.2675151852117085e-05
1.43,-54.12816857977162,108.95613335612478,2.2224664257521197e-05
1.44,-54.37444505803783,109.43760137716484,2.1743697123372143e-05
1.45,-54.619714411801475,109.91592432520021,2.1231844055809215e-05
1.46,-54.863983209736325,110.391082354898,2.068869866097169e-05
1.47,-55.10725817842129,110.86305533673261,2.011385454499886e-05
1.48,-55.349546202796326,111.33182285585187,1.9506905314030033e-05
1.49,-55.590854326269266,111.79736421086972,1.8867444574204484e-05
1.5,-55.83118975045278,112.2596584125869,1.8195065931661516e-05
1.51,-56.07055983450939,112.7186841826406,1.7489362992540406e-05
1.52,-56.30897209408201,113.17441995208442,1.674992936298046e-05
1.53,-56.54643419978614,113.62684385989951,1.597635864912095e-05
1.54,-56.78295397523917,114.075933751438,1.5168244457101183e-05
1.55,-57.0185393946014,114.52166717679998,1.4325180393060437e-05
1.56,-57.25319857960234,114.9640213891447,1.3446760063138024e-05
1.57,-57.486939796025226,115.40297334293794,1.2532577073473223e-05
1.58,-57.71977144962137,115.83849969213561,1.1582225030205324e-05
1.59,-57.951702081425836,116.2705767883059,1.0595297539473619e-05
1.6,-58.18274036244437,116.6991806786904,9.571388207417405e-06
1.61,-58.412895087681406,117.12428710420616,8.51009064017596e-06
1.62,-58.642175169477525,117.54587149738954,7.41099844388858e-06
1.6300000000000001,-58.87058963012497,117.96390898028402,6.273705224694559e-06
1.6400000000000001,-59.09814759372815,118.37837436227309,5.097804588733179e-06
1.6500000000000001,-59.32485827727623,118.78924213785994,3.882890142143752e-06
1.6600000000000001,-59.55073098089418,119.19648648439649,2.6285554910655562e-06
1.67,-59.77577507723806,119.60008125976283,1.3343942416378684e-06
1.68,-60.00000000000001,120.00000000000001,0.0
1.69,-60.22341187152561,120.39622414985371,-1.3746272338480864e-06
1.7,-60.44600302736893,120.7887676620458,-2.787861884463462e-06
1.71,-60.667761418309105,121.17765213797264,-4.237671982542708e-06
1.72,-60.888673870950434,121.56289859298748,-5.7220255587821496e-06
1.73,-61.108726084141054,121.94452747952185,-7.238890643878307e-06
1.74,-61.32790262509188,122.3225587094642,-8.786235268527704e-06
1.75,-61.546186925227275,122.69701167581852,-1.036202746342666e-05
1.76,-61.7635612757992,123.06790527366358,-1.1964235259271768e-05
1.77,-61.98000682329579,123.43525792043138,-1.3590826686759343e-05
1.78,-62.195503564676024,123.79908757552258,-1.523976977658598e-05
1.79,-62.41003034246106,124.15941175927325,-1.6909032559447993e-05
1.8,-62.62356483971387,124.51624757128812,-1.8596583066041988e-05
1.81,-62.83608357493759,124.86961170815114,-2.0300389327064262e-05
1.82,-63.04756189692428,125.21952048052584,-2.2018419373211425e-05
1.83,-63.25797397958444,125.56598982965315,-2.3748641235179782e-05
1.84,-63.46729281678892,125.90903534325673,-2.548902294366594e-05
1.85,-63.67549021725382,126.24867227086092,-2.72375325293662e-05
1.86,-63.882536799499896,126.58491553852862,-2.899213802297717e-05
1.87,-64.08840198691716,126.9177797630219,-3.075080745519515e-05
1.8800000000000001,-64.29305400296636,127.24727926539052,-3.251150885671676e-05
1.8900000000000001,-64.49645986654801,127.5734280839891,-3.427221025823829e-05
1.9000000000000001,-64.69858538757065,127.89623998692561,-3.603087969045635e-05
1.9100000000000001,-64.8993951627492,128.21572848394058,-3.778548518406724e-05
1.92,-65.09885257166502,128.53190683771714,-3.953399476976758e-05
1.93,-65.2969197731185,128.8447880746201,-4.127437647825366e-05
1.94,-65.49355770180576,129.1543849948623,-4.300459834022209e-05
1.95,-65.68872606535035,129.4607101820946,-4.472262838636919e-05
1.96,-65.88238334172128,129.76377601241668,-4.642643464739154e-05
1.97,-66.07448677706824,130.06359466280333,-4.811398515398545e-05
1.98,-66.26499238400503,130.36017811894183,-4.978324793684754e-05
1.99,-66.45385494037193,130.65353818247465,-5.14321910266741e-05
2.0,-66.64102798850797,130.94368647764102,-5.305878245416168e-05
2.0100000000000002,-66.82646383506314,131.23063445731106,-5.4660990250006785e-05
2.02,-67.01011355138137,131.5143934084051,-5.623678244490574e-05
2.0300000000000002,-67.19192697448409,131.79497445669054,-5.7784127069555135e-05
2.04,-67.37185270868459,132.07238857094868,-5.93009921546513e-05
2.05,-67.54983812786247,132.34664656650278,-6.078534573089081e-05
2.06,-67.72582937842817,132.61775910809914,-6.223515582896997e-05
2.07,-67.89977138300627,132.8857367121325,-6.364839047958543e-05
2.08,-68.07160784486666,133.15058974820647,-6.502301771343344e-05
2.09,-68.24128125313254,133.41232844002033,-6.635700556121065e-05
2.1,-68.40873288879284,133.6709628655727,-6.764832205361331e-05
2.11,-68.57390283154798,133.92650295667337,-6.88949352213381e-05
2.12,-68.73672996751594,134.1789584977535,-7.009481309508127e-05
2.13,-68.89715199782678,134.42833912396597,-7.124592370553941e-05
2.14,-69.0551054481323,134.6746543185661,-7.234623508340889e-05
2.15,-69.2105256790579,134.9179134095646,-7.339371525938626e-05
2.16,-69.36334689762369,135.158125565644,-7.438633226416788e-05
2.17,-69.51350216966053,135.39529979133076,-7.532205412845027e-05
2.18,-69.66092343324794,135.62944492141406,-7.619884888292984e-05
2.19,-69.80554151319963,135.86056961460565,-7.701468455830307e-05
2.2,-69.94728613662232,136.0886823464321,-7.776752918526642e-05
2.21,-70.08608594957427,136.31379140135417,-7.845535079451634e-05
2.22,-70.22186853484848,136.53590486410656,-7.907611741674926e-05
2.23,-70.35456043090717,136.75503061025393,-7.96277970826617e-05
2.24,-70.48408715199227,136.97117629595743,-8.010835782295002e-05
2.25,-70.61037320943872,137.18434934694915,-8.051576766831077e-05
2.2600000000000002,-70.73334213421589,137.39455694671054,-8.084799464944032e-05
2.27,-70.85291650072365,137.60180602385407,-8.110300679703518e-05
2.2800000000000002,-70.9690179518695,137.80610323870562,-8.127877214179182e-05
2.29,-71.08156722545323,138.00745496908857,-8.137325871440665e-05
2.3000000000000003,-71.190484181887,138.2058672953105,-8.138443454557616e-05
2.31,-71.29568783327758,138.40134598435412,-8.13102676659968e-05
2.32,-71.39709637389961,138.59389647327632,-8.114872610636495e-05
2.33,-71.49462721208826,138.7835238518196,-8.089777789737718e-05
2.34,-71.5881970035809,138.97023284424253,-8.055539106972988e-05
2.35,-71.67772168633745,139.15402779037507,-8.011953365411952e-05
2.36,-71.7631165168708,139.33491262590948,-7.958817368124255e-05
2.37,-71.84429610811831,139.51289086193552,-7.895927918179543e-05
2.38,-71.92117446888736,139.68796556373258,-7.823081818647463e-05
2.39,-71.99366504490746,139.86013932883185,-7.740075872597658e-05
2.4,-72.06168076152387,140.0294142643645,-7.646706883099774e-05
2.41,-72.12513406806677,140.19579196371137,-7.54277165322346e-05
2.42,-72.18393698393241,140.3592734824745,-7.42806698603835e-05
2.43,-72.23800114641222,140.5198593137901,-7.302389684614108e-05
2.44,-72.28723786030743,140.67754936300614,-7.165536552020363e-05
2.45,-72.33155814936674,140.83234292174845,-7.017304391326772e-05
2.46,-72.37087280958568,140.98423864140298,-6.857490005602972e-05
2.47,-72.40509246440624,141.13323450604184,-6.685890197918618e-05
2.48,-72.4341276218558,141.279327804825,-6.502301771343339e-05
2.49,-72.45788873366439,141.42251510390983,-6.306521528946804e-05
2.5,-72.47628625639919,141.56279221790493,-6.098346273798643e-05
2.5100000000000002,-72.48923071465445,141.70015418090483,-5.877572808968496e-05
2.52,-72.49663276633486,141.83459521714641,-5.6439979375260286e-05
2.5300000000000002,-72.4984032700685,141.96610871132938,-5.397418462540864e-05
2.54,-72.4944533547851,142.09468717864505,-5.137631187082667e-05
2.5500000000000003,-72.484694491492,142.2203222345616,-4.864432914221059e-05
2.56,-72.46903856727974,142.3430045644153,-4.577620447025722e-05
2.57,-72.44739796158447,142.4627238928599,-4.276990588566261e-05
2.58,-72.41968562473247,142.57946895322914,-3.962340141912355e-05
2.59,-72.38581515878704,142.69322745687018,-3.6334659101336234e-05
2.6,-72.34570090071401,142.80398606250733,-3.290164696299734e-05
2.61,-72.29925800787659,142.91173034569906,-2.9322333034803106e-05
2.62,-72.24640254586373,143.0164447684529,-2.5594685347450272e-05
2.63,-72.18705157865027,143.11811264906603,-2.1716671931634973e-05
2.64,-72.12112326107844,143.2167161322613,-1.7686260818053888e-05
2.65,-72.04853693364232,143.31223615969094,-1.3501420037403315e-05
2.66,-71.96921321954714,143.4046524408829,-9.160117620379935e-06
2.67,-71.88307412400505,143.49394342470612,-4.660321597679937e-06
2.68,-71.79004313571701,143.580086271434,0.0
2.69,-71.69006763930864,143.66306354067052,4.821253566520851e-06
2.7,-71.58318618043971,143.74288355296483,9.797343193971596e-06
2.71,-71.4694619990203,143.81956067473524,1.492054739899921e-05
2.72,-71.34896076811525,143.89310870544085,2.0183144698249764e-05
2.73,-71.22175057432382,143.96354092307425,2.557741360837026e-05
2.74,-71.0879018949991,144.0308701298347,3.109563264600675e-05
2.75,-70.94748757225177,144.09510869791842,3.6730080327806244e-05
2.7600000000000002,-70.80058278368992,144.1562686153607,4.2473035170414776e-05
2.77,-70.64726500985545,144.21436153186508,4.831677569047913e-05
2.7800000000000002,-70.48761399832549,144.26939880455217,5.4253580404646094e-05
2.79,-70.32171172445793,144.3213915435611,6.0275727829561676e-05
2.8000000000000003,-70.14964234876949,144.37035065743638,6.637549648187295e-05
2.81,-69.9714921709454,144.4162868982314,7.254516487822588e-05
2.82,-69.78734958049192,144.45921090626126,7.877701153526755e-05
2.83,-69.59730500405351,144.49913325443686,8.506331496964395e-05
2.84,-69.40145084942883,144.5360644921122,9.139635369800217e-05
2.85,-69.19988144633194,144.57001518837902,9.776840623698816e-05
2.86,-68.99269298395846,144.6009959747417,0.00010417175110324902
2.87,-68.77998344542745,144.62901758710788,0.00011059866681343073
2.88,-68.56185253918368,144.65409090703088,0.00011704143188418035
2.89,-68.33840162745776,144.67622700214164,0.00012349232483214388
2.9,-68.10973365189301,144.69543716570928,0.0001299436241739684
2.91,-67.8759530564615,144.71173295527203,0.00013638760842629987
2.92,-67.63716570780282,144.7251262302818,0.0001428165561057854
2.93,-67.39347881313157,144.73562918870795,0.00014922274572907093
2.94,-67.14500083586985,144.74325440254927,0.00015559845581280358
2.95,-66.89184140917253,144.74801485220428,0.00016193596487362933
2.96,-66.63411124752209,144.74992395965492,0.0001682275514281952
